0.000300 118
0.002900 58
0.003100 143
0.007400 131
0.007700 192
0.008100 71
0.008900 125
0.009500 45
0.011800 197
0.011900 62
0.012600 104
0.012700 101
0.012900 153
0.013600 191
0.014100 152
0.014300 1
0.018200 3
0.018600 170
0.018800 129
0.019000 49
0.019100 175
0.021200 136
0.022300 82
0.022900 33
0.022900 77
0.024000 117
0.025000 39
0.025200 136
0.026100 164
0.031400 102
0.031400 140
0.031900 53
0.032800 168
0.033000 28
0.033300 46
0.034300 70
0.034500 61
0.036300 148
0.037200 80
0.037800 135
0.038500 157
0.039400 88
0.042600 165
0.043500 168
0.044700 161
0.045300 67
0.045800 112
0.046000 175
0.046500 130
0.046500 150
0.046800 61
0.047200 102
0.048700 49
0.049700 185
0.050100 109
0.051300 44
0.052400 127
0.052700 128
0.053600 28
0.053800 108
0.054600 154
0.057100 110
0.057400 182
0.057500 129
0.058100 159
0.058500 31
0.059400 95
0.059800 68
0.060000 110
0.062600 112
0.064000 44
0.065100 196
0.065400 104
0.067100 160
0.067800 188
0.068800 79
0.068900 110
0.069300 169
0.070700 180
0.074100 150
0.074500 106
0.074700 10
0.075400 148
0.078700 63
0.079800 154
0.080400 122
0.081700 138
0.082000 109
0.083200 145
0.083500 125
0.083700 44
0.084200 66
0.084400 150
0.085000 27
0.086100 42
0.087200 125
0.088000 133
0.088800 102
0.089100 4
0.091900 75
0.093800 115
0.095000 50
0.095100 96
0.096200 58
0.096300 33
0.096400 197
0.096500 58
0.096900 194
0.097800 103
0.098000 104
0.099400 10
0.099400 72
0.099400 195
0.101100 139
0.101500 3
0.102100 21
0.102500 146
0.103000 183
0.103200 99
0.103900 199
0.104100 14
0.104600 24
0.106700 86
0.109500 157
0.111500 16
0.112300 157
0.113400 139
0.113600 167
0.114100 107
0.116800 163
0.119800 185
0.120900 72
0.122100 115
0.122800 185
0.125000 12
0.125100 183
0.126600 4
0.126700 173
0.127400 175
0.128400 47
0.128600 188
0.129400 25
0.132500 183
0.132700 126
0.137000 161
0.137700 49
0.139500 112
0.140600 73
0.142200 147
0.144500 149
0.144800 89
0.145200 137
0.146100 20
0.147200 137
0.148800 163
0.150900 75
0.152800 105
0.154000 6
0.156300 174
0.158800 33
0.158900 196
0.160100 122
0.162400 29
0.162500 100
0.163500 87
0.163900 120
0.164300 99
0.168000 180
0.169000 22
0.169500 37
0.170300 169
0.170600 33
0.171200 150
0.171700 83
0.171900 170
0.172100 20
0.173400 189
0.173800 92
0.175800 179
0.176300 129
0.177600 6
0.178400 64
0.178800 20
0.179100 86
0.180600 162
0.182500 94
0.183200 153
0.183400 150
0.184400 18
0.184900 165
0.189800 59
0.191100 156
0.191200 199
0.191800 125
0.192200 183
0.192300 73
0.193000 63
0.193500 156
0.194000 177
0.194700 29
0.195300 5
0.195700 169
0.195800 62
0.196700 171
0.198700 146
0.200800 114
0.200900 23
0.204700 122
0.205100 199
0.205300 198
0.205600 12
0.209900 155
0.210200 5
0.212100 28
0.212400 179
0.212700 86
0.213800 129
0.214300 88
0.215900 184
0.217300 123
0.218300 10
0.218500 140
0.219300 50
0.221400 116
0.222300 111
0.222500 43
0.222700 119
0.223300 36
0.223400 95
0.225100 2
0.225200 68
0.226200 179
0.227600 128
0.228000 54
0.228800 122
0.229200 154
0.229500 21
0.230100 163
0.230100 186
0.232200 8
0.234600 124
0.235500 185
0.235600 68
0.237200 103
0.239700 177
0.240100 72
0.240600 109
0.240900 67
0.241700 170
0.242100 183
0.242400 193
0.243600 60
0.243600 73
0.244000 90
0.244000 172
0.247700 36
0.248300 13
0.248800 138
0.249300 48
0.249400 76
0.250200 165
0.250800 89
0.252000 86
0.253200 37
0.253300 118
0.253500 22
0.253700 130
0.254100 48
0.254700 81
0.255400 5
0.256200 36
0.259000 147
0.259600 126
0.261100 185
0.262900 124
0.262900 179
0.263000 39
0.263200 30
0.263300 96
0.263700 199
0.264500 168
0.264700 134
0.266000 148
0.266200 151
0.268100 172
0.268800 163
0.269900 8
0.272100 10
0.273200 58
0.273300 8
0.274700 152
0.275500 41
0.276000 195
0.276900 65
0.280400 18
0.280600 192
0.282800 147
0.283400 4
0.283600 19
0.285300 119
0.287000 94
0.287500 109
0.289900 20
0.292100 15
0.293400 74
0.293600 162
0.294300 173
0.295100 189
0.295400 46
0.295400 71
0.295400 111
0.298700 25
0.298800 5
0.298800 198
0.301100 105
0.304000 164
0.304800 68
0.305100 146
0.306400 179
0.308600 24
0.308800 68
0.309500 174
0.310500 137
0.310600 152
0.311200 14
0.312500 120
0.312600 54
0.312900 100
0.313100 192
0.313700 66
0.316100 55
0.317900 168
0.319300 124
0.319800 39
0.319900 150
0.320900 7
0.326600 141
0.327600 93
0.328800 26
0.329000 35
0.330000 144
0.331000 192
0.332500 174
0.333600 182
0.333800 136
0.333800 190
0.334300 103
0.337700 161
0.338700 133
0.339800 109
0.339800 161
0.341800 56
0.342600 163
0.342700 188
0.342800 95
0.344000 78
0.345200 79
0.347100 186
0.347600 163
0.348700 140
0.350600 40
0.351400 12
0.353000 24
0.353300 97
0.354500 77
0.354500 140
0.354900 36
0.356900 44
0.359100 44
0.362000 119
0.362800 163
0.363000 184
0.365000 98
0.366200 158
0.367000 27
0.367200 157
0.367400 151
0.367900 32
0.368200 57
0.369600 183
0.370000 35
0.373000 32
0.373400 95
0.376400 133
0.377200 49
0.378200 1
0.379400 181
0.385000 79
0.385300 0
0.385900 87
0.386000 65
0.387800 127
0.388500 52
0.388600 81
0.392100 89
0.392800 53
0.396400 167
0.397900 2
0.401300 130
0.401400 184
0.402700 168
0.403100 125
0.406800 7
0.407200 51
0.407600 161
0.407800 103
0.408000 124
0.411100 57
0.412300 1
0.412400 162
0.412600 187
0.414100 8
0.415700 5
0.418100 69
0.422500 104
0.423100 112
0.424200 46
0.425000 143
0.425000 190
0.425900 160
0.426000 97
0.426300 99
0.426500 66
0.426700 11
0.427100 71
0.427700 59
0.427900 83
0.428800 27
0.429100 85
0.430400 10
0.430400 156
0.431300 80
0.432000 43
0.432300 97
0.437600 128
0.438300 147
0.440800 77
0.441500 19
0.441500 73
0.441800 130
0.442000 27
0.443400 53
0.443700 87
0.443800 199
0.445000 154
0.445000 180
0.445200 23
0.445300 118
0.445400 155
0.447600 9
0.447800 38
0.448600 69
0.449000 61
0.449300 123
0.449600 29
0.450100 144
0.450200 170
0.450900 179
0.451700 85
0.453500 80
0.456400 125
0.456700 152
0.457400 11
0.461800 62
0.462600 96
0.466200 195
0.469700 74
0.470700 41
0.472900 4
0.473000 176
0.474000 30
0.480400 182
0.481000 195
0.481100 108
0.481800 101
0.485200 45
0.485500 148
0.487500 120
0.488300 164
0.488400 55
0.489200 181
0.489200 199
0.489800 122
0.492600 65
0.494600 51
0.494800 140
0.495400 174
0.496400 33
0.496500 46
0.496800 187
0.496900 138
0.499000 193
0.499500 25
0.502000 105
0.502500 163
0.503600 41
0.503700 108
0.504900 36
0.509100 98
0.510500 30
0.510800 159
0.511300 90
0.511600 151
0.512600 150
0.513200 0
0.515000 68
0.516900 84
0.518500 101
0.519100 158
0.522400 76
0.522400 140
0.522600 76
0.524400 125
0.526600 82
0.527100 129
0.528500 51
0.529800 92
0.530100 104
0.531900 89
0.535800 132
0.536400 72
0.536600 172
0.537700 180
0.538500 160
0.539100 114
0.541800 9
0.543100 126
0.546900 183
0.547700 14
0.548000 45
0.548400 45
0.549100 199
0.550200 21
0.550300 43
0.552800 117
0.553200 144
0.557200 107
0.557200 121
0.557800 54
0.557900 94
0.558400 115
0.560300 189
0.561600 51
0.563000 8
0.563400 76
0.565100 123
0.565100 146
0.567200 4
0.567800 168
0.568600 50
0.568800 147
0.568900 66
0.570000 117
0.572000 77
0.572300 128
0.572800 117
0.573600 9
0.574000 9
0.574800 57
0.577000 117
0.577300 56
0.578100 103
0.578300 149
0.579600 24
0.581100 122
0.585600 79
0.587000 29
0.588000 140
0.588600 137
0.590500 24
0.590700 46
0.592000 12
0.592300 27
0.593000 150
0.595100 189
0.595800 34
0.596900 2
0.596900 39
0.597600 94
0.598400 36
0.599000 146
0.599900 127
0.602600 147
0.603200 35
0.604100 130
0.604100 159
0.604200 14
0.604400 103
0.605400 174
0.607300 62
0.607800 101
0.609400 137
0.611800 71
0.612600 53
0.613400 35
0.615000 66
0.615500 23
0.616500 124
0.620800 114
0.622400 66
0.622800 78
0.623200 135
0.623600 93
0.624500 129
0.624800 7
0.625300 3
0.626400 24
0.626700 8
0.628300 36
0.629000 194
0.630300 147
0.631200 88
0.632500 161
0.632700 145
0.634800 117
0.637400 101
0.637500 119
0.638400 141
0.639600 97
0.640900 86
0.642000 7
0.642100 188
0.642900 119
0.643300 130
0.643500 60
0.643600 49
0.645700 130
0.647500 12
0.647600 153
0.648500 103
0.651000 165
0.653300 84
0.655800 184
0.655900 52
0.658400 45
0.658900 68
0.660700 110
0.661200 122
0.663500 14
0.664300 126
0.665200 99
0.666100 174
0.668600 186
0.670700 165
0.671300 94
0.671500 24
0.672500 38
0.672800 5
0.673400 24
0.673900 138
0.674500 173
0.675300 129
0.675700 174
0.676200 37
0.677900 189
0.679300 165
0.682000 93
0.682600 162
0.683000 146
0.685700 105
0.686100 23
0.686400 142
0.688500 89
0.688800 85
0.689000 16
0.689700 97
0.690000 64
0.690400 72
0.692000 145
0.693800 69
0.695100 7
0.697800 28
0.697900 169
0.700600 87
0.702900 155
0.704000 43
0.704800 35
0.706200 144
0.707700 117
0.712500 13
0.712600 145
0.714900 157
0.716300 73
0.716600 83
0.716800 131
0.718400 11
0.719000 94
0.719700 98
0.719800 29
0.720300 61
0.723700 189
0.724300 36
0.724600 3
0.726600 191
0.727500 49
0.728200 60
0.729300 171
0.729600 73
0.730900 152
0.731000 44
0.733600 12
0.733700 9
0.733900 74
0.735100 164
0.739500 45
0.741000 86
0.741200 143
0.741900 59
0.742400 25
0.742700 195
0.743100 183
0.743200 54
0.744200 174
0.744600 0
0.745500 45
0.746400 162
0.749200 171
0.749300 158
0.750500 71
0.750800 67
0.751000 4
0.751300 117
0.751600 164
0.751800 161
0.752400 156
0.754400 149
0.754800 129
0.755200 21
0.755400 111
0.758500 22
0.758500 94
0.758700 191
0.760400 115
0.760600 60
0.761900 51
0.762600 160
0.763600 111
0.764300 152
0.764700 106
0.766900 122
0.767200 148
0.767200 169
0.769000 81
0.769900 102
0.770200 60
0.774300 141
0.774500 151
0.776300 50
0.777900 115
0.778300 85
0.778900 19
0.779200 196
0.779400 122
0.780300 142
0.781000 121
0.781900 5
0.782100 29
0.783000 167
0.783300 11
0.785300 42
0.789300 178
0.789800 32
0.791800 82
0.795600 69
0.803000 64
0.803600 101
0.803600 199
0.805300 48
0.809100 77
0.809200 22
0.809200 112
0.812500 172
0.813300 79
0.816800 147
0.817100 45
0.818100 160
0.818500 148
0.818600 153
0.820000 199
0.820100 34
0.821600 70
0.823200 191
0.826000 23
0.827100 184
0.830100 63
0.830900 23
0.832100 136
0.832600 159
0.835500 88
0.836400 90
0.836700 18
0.837000 49
0.837100 181
0.837200 194
0.838100 147
0.843400 8
0.843500 41
0.846200 54
0.846200 169
0.846600 130
0.846800 198
0.848700 72
0.849300 114
0.850000 14
0.850100 78
0.851300 160
0.851600 47
0.853300 185
0.855300 60
0.859500 67
0.860700 151
0.861300 108
0.862200 44
0.863600 173
0.868000 37
0.868600 140
0.869600 30
0.870100 80
0.870400 21
0.871400 62
0.872000 115
0.873700 77
0.875600 155
0.878800 37
0.878900 191
0.881000 169
0.881100 185
0.881200 120
0.883200 54
0.883500 178
0.884000 9
0.886900 169
0.887000 171
0.887700 61
0.888500 36
0.888700 68
0.889100 49
0.889100 119
0.890200 177
0.893200 75
0.893500 80
0.894000 124
0.894500 31
0.895100 94
0.895900 119
0.895900 121
0.896600 11
0.896600 181
0.897300 57
0.897400 20
0.897600 20
0.897600 170
0.898200 166
0.899000 188
0.899400 66
0.900500 103
0.900600 186
0.901000 45
0.902400 157
0.903600 7
0.904000 144
0.905100 173
0.905200 24
0.905500 95
0.905700 8
0.907100 191
0.907400 145
0.908200 25
0.908300 144
0.909900 118
0.910000 172
0.910200 0
0.910700 127
0.911900 123
0.912000 21
0.912000 48
0.912400 98
0.913000 172
0.913600 111
0.914200 178
0.914500 103
0.915500 185
0.916100 37
0.917200 11
0.917200 98
0.917900 136
0.919100 87
0.919900 13
0.921700 12
0.921800 0
0.922200 101
0.923200 63
0.923600 55
0.925300 22
0.928700 148
0.931200 141
0.931600 143
0.933100 178
0.934100 114
0.934400 26
0.936800 31
0.937100 16
0.938300 158
0.941200 102
0.943300 117
0.943500 154
0.943600 94
0.946700 108
0.947400 145
0.947800 118
0.947900 71
0.948900 89
0.949300 86
0.949500 174
0.949900 138
0.951900 85
0.951900 152
0.952000 190
0.952700 78
0.953300 184
0.954200 108
0.956100 79
0.957700 77
0.958000 63
0.960500 177
0.961000 30
0.964800 24
0.966100 51
0.966100 56
0.971900 28
0.973400 2
0.974300 128
0.975600 128
0.975800 128
0.976300 145
0.977100 7
0.978300 147
0.979300 14
0.981200 123
0.981900 45
0.985800 178
0.986000 149
0.986300 69
0.988200 154
0.991000 18
0.992400 57
0.995900 137
0.997500 54
0.998200 50
0.998400 40
0.998700 160
0.999200 165
0.999300 64
1.001600 93
1.004400 66
1.004600 179
1.004700 130
1.007900 36
1.010800 139
1.010900 29
1.011400 45
1.011800 134
1.011900 106
1.012300 89
1.012400 146
1.012700 60
1.012700 190
1.015800 49
1.017100 198
1.017300 66
1.017600 62
1.020100 170
1.020300 122
1.020500 180
1.021300 167
1.021500 55
1.022800 53
1.024000 190
1.026300 52
1.027100 67
1.027900 61
1.028200 74
1.028900 107
1.032400 160
1.033600 135
1.033800 175
1.035200 149
1.036200 0
1.036300 18
1.036400 138
1.036700 80
1.036800 14
1.037100 181
1.037600 183
1.037700 95
1.038000 14
1.038700 160
1.039800 138
1.042000 57
1.042900 47
1.043300 194
1.044000 81
1.044900 69
1.044900 138
1.045300 48
1.045300 69
1.045600 43
1.046700 61
1.048300 180
1.049400 179
1.049700 20
1.050400 109
1.051000 79
1.051100 198
1.051400 195
1.051800 33
1.053300 47
1.053400 169
1.053500 61
1.056900 18
1.057100 187
1.057300 165
1.059200 72
1.059600 88
1.062000 18
1.062000 85
1.062300 15
1.063500 8
1.064000 15
1.064600 128
1.064800 20
1.065000 152
1.065200 16
1.065600 71
1.065900 24
1.065900 107
1.067100 86
1.067300 153
1.067900 128
1.071300 136
1.072200 174
1.072500 94
1.072600 86
1.073600 43
1.073600 53
1.077500 185
1.079200 175
1.079900 177
1.080400 122
1.082000 122
1.085100 101
1.085600 98
1.086200 161
1.086400 165
1.088400 54
1.088700 8
1.090600 142
1.091300 40
1.092100 131
1.092300 18
1.092400 146
1.095800 155
1.096900 115
1.098400 111
1.100400 122
1.101000 131
1.106600 104
1.108800 167
1.109300 60
1.109700 29
1.109700 101
1.110500 85
1.110700 190
1.110800 82
1.113600 154
1.116300 114
1.116500 42
1.117600 95
1.118900 89
1.121500 3
1.122900 9
1.123300 23
1.123700 151
1.124100 106
1.124900 80
1.124900 89
1.125900 11
1.126300 196
1.126400 156
1.130100 27
1.130200 8
1.130200 149
1.132300 150
1.132700 15
1.133800 73
1.133800 123
1.134100 2
1.134200 10
1.134300 147
1.136900 66
1.136900 187
1.137300 60
1.137400 185
1.137800 87
1.138000 56
1.139400 112
1.139600 69
1.140100 174
1.141600 188
1.143300 25
1.144800 11
1.145000 7
1.145600 191
1.145700 164
1.148900 160
1.150200 11
1.151400 158
1.152300 90
1.153400 26
1.159200 122
1.160900 77
1.161300 115
1.162300 19
1.162600 13
1.163600 27
1.165100 68
1.165400 45
1.165700 88
1.165700 148
1.166500 50
1.166600 189
1.167100 19
1.167300 170
1.167900 94
1.168700 26
1.169200 43
1.169300 5
1.169500 96
1.169700 118
1.175900 104
1.176000 196
1.179200 118
1.179800 48
1.180000 35
1.180200 113
1.180600 44
1.181000 23
1.182500 54
1.182500 127
1.183200 143
1.183700 90
1.183700 171
1.184000 161
1.184200 173
1.184500 139
1.186000 19
1.187400 154
1.188500 98
1.193400 51
1.194100 33
1.195500 76
1.196200 51
1.196400 152
1.197600 113
1.197900 181
1.198100 152
1.198400 114
1.198600 193
1.200600 145
1.202000 194
1.206400 57
1.207100 135
1.209200 25
1.210000 143
1.210700 8
1.210900 180
1.211200 39
1.211700 4
1.211800 58
1.216300 183
1.217100 166
1.218000 15
1.219100 20
1.220800 76
1.221500 21
1.221600 53
1.222200 149
1.223500 108
1.224400 20
1.224500 46
1.226200 158
1.226300 72
1.227200 182
1.228300 170
1.228600 77
1.229400 90
1.230100 77
1.230900 65
1.231100 143
1.231500 35
1.232200 146
1.232700 152
1.234000 60
1.234300 0
1.234600 197
1.234800 144
1.236100 198
1.236800 70
1.236900 160
1.238400 117
1.239800 149
1.240000 62
1.240500 101
1.242300 146
1.243100 174
1.244100 25
1.244900 71
1.246100 102
1.246500 87
1.246800 8
1.250100 67
1.251900 155
1.252100 44
1.252600 183
1.254100 186
1.255000 199
1.255700 37
1.256300 83
1.256700 0
1.257300 55
1.257800 171
1.258300 158
1.258400 144
1.259500 186
1.260100 92
1.260100 162
1.260600 35
1.261000 175
1.261600 124
1.262400 153
1.262500 96
1.266300 136
1.267400 156
1.268400 171
1.268500 84
1.268700 165
1.268900 149
1.269800 4
1.270500 123
1.272100 70
1.272600 87
1.275900 120
1.276300 172
1.277300 133
1.277700 144
1.278400 158
1.279800 103
1.280600 97
1.280900 100
1.281800 41
1.282200 182
1.283000 113
1.283300 40
1.284100 153
1.286600 35
1.289100 112
1.289300 81
1.290900 150
1.292600 60
1.295400 166
1.296000 140
1.296300 181
1.297100 136
1.297600 91
1.297900 188
1.298300 17
1.298500 68
1.299200 72
1.299300 177
1.300800 189
1.301300 76
1.303900 99
1.304000 20
1.304000 24
1.304100 70
1.305400 137
1.305800 47
1.306800 134
1.307600 17
1.308100 13
1.310100 153
1.310500 56
1.310600 46
1.310700 52
1.314900 178
1.316100 175
1.316800 176
1.318300 26
1.319400 170
1.319500 72
1.319700 128
1.319800 106
1.320000 160
1.320200 137
1.321000 78
1.322600 120
1.324200 149
1.324900 196
1.325500 3
1.325900 192
1.326000 79
1.326800 135
1.326900 40
1.327000 90
1.328100 134
1.328200 100
1.328200 171
1.329500 95
1.330100 21
1.332400 44
1.335200 109
1.336500 97
1.337000 47
1.337600 108
1.340100 121
1.341100 42
1.344600 107
1.345700 52
1.348200 170
1.350100 26
1.350500 56
1.351900 1
1.352100 51
1.352600 199
1.352800 47
1.352900 169
1.354400 40
1.355900 169
1.356000 92
1.357500 93
1.358800 113
1.359200 126
1.359200 180
1.359700 126
1.360500 171
1.360800 181
1.361600 150
1.364300 51
1.365400 123
1.367300 103
1.367800 51
1.367900 112
1.368200 127
1.368900 138
1.369500 66
1.371200 73
1.371300 70
1.371500 130
1.371600 185
1.371800 12
1.374600 161
1.374900 44
1.376100 171
1.376500 138
1.377200 173
1.377500 94
1.378000 130
1.379100 9
1.379600 156
1.379700 170
1.379800 6
1.379900 116
1.382100 99
1.382700 69
1.385400 6
1.385800 33
1.386500 70
1.388700 94
1.390000 97
1.391200 10
1.392000 135
1.392600 190
1.393400 29
1.396200 66
1.397500 76
1.397800 117
1.400300 70
1.401700 95
1.402200 147
1.404900 101
1.405100 82
1.405400 57
1.405700 113
1.406800 7
1.407200 32
1.407800 23
1.409500 53
1.409500 149
1.410100 38
1.410800 185
1.411100 195
1.411600 146
1.411800 10
1.419000 172
1.420000 168
1.420500 82
1.424600 5
1.426000 95
1.426200 58
1.427600 177
1.428500 130
1.428600 168
1.429800 80
1.430000 109
1.431100 172
1.432600 65
1.432800 73
1.433300 65
1.434100 72
1.434600 90
1.434900 148
1.436800 186
1.437100 173
1.438300 179
1.439100 77
1.439100 136
1.439800 77
1.441400 168
1.441600 127
1.441600 172
1.443300 132
1.444800 0
1.446000 99
1.446900 80
1.447500 0
1.447500 167
1.447500 173
1.448600 113
1.448600 174
1.449100 53
1.449900 191
1.451500 180
1.453200 38
1.453900 32
1.454300 6
1.455800 96
1.457400 2
1.458300 144
1.458800 193
1.460200 81
1.460300 70
1.460400 80
1.463200 36
1.463500 179
1.464600 99
1.465100 91
1.465400 105
1.467000 62
1.467400 0
1.468900 188
1.469400 195
1.470000 188
1.470500 35
1.470500 49
1.471200 194
1.472800 52
1.473600 9
1.474400 138
1.474900 126
1.475000 30
1.476200 76
1.478800 175
1.480200 113
1.480500 142
1.482300 56
1.482800 139
1.483200 96
1.483400 100
1.483500 126
1.483700 175
1.486000 106
1.487000 54
1.488000 10
1.488800 134
1.490100 124
1.493400 146
1.493600 16
1.494800 24
1.494900 14
1.495600 182
1.499300 80
1.499800 35
1.502600 88
1.502800 83
1.503900 25
1.504200 5
1.505100 170
1.506300 50
1.506700 189
1.507600 108
1.508700 141
1.511300 100
1.511300 167
1.515200 199
1.516200 148
1.516700 183
1.517100 90
1.518300 99
1.519000 195
1.519300 194
1.519400 74
1.519800 4
1.520200 157
1.521200 33
1.523000 148
1.523800 48
1.524900 53
1.525100 6
1.526500 132
1.532300 62
1.533300 4
1.535100 60
1.535400 145
1.535800 181
1.538000 33
1.539400 180
1.540300 105
1.541100 0
1.542100 149
1.542400 141
1.543500 77
1.544300 178
1.544700 98
1.545500 116
1.546300 186
1.546700 190
1.548100 172
1.548200 143
1.548400 59
1.550100 62
1.550400 121
1.550800 84
1.555000 67
1.556000 100
1.556000 183
1.559300 160
1.560100 29
1.561000 32
1.561400 92
1.562800 166
1.563800 102
1.564200 116
1.566100 177
1.566200 27
1.566500 154
1.568700 67
1.568900 90
1.570700 199
1.571200 130
1.572700 160
1.572900 132
1.573000 12
1.573100 59
1.573500 173
1.578300 138
1.579300 44
1.579700 197
1.579800 81
1.579900 81
1.581000 7
1.582200 118
1.582400 118
1.582400 151
1.584400 15
1.585100 75
1.585400 54
1.585600 53
1.586900 132
1.588200 196
1.589700 79
1.590000 94
1.590900 28
1.591200 169
1.591700 124
1.592700 188
1.594000 169
1.600700 0
1.601400 193
1.601900 39
1.602400 175
1.606000 188
1.606100 162
1.606400 77
1.607000 190
1.611800 56
1.613000 81
1.613500 35
1.614500 126
1.615500 199
1.619100 145
1.619100 176
1.619900 111
1.620500 190
1.620700 133
1.621000 93
1.621400 198
1.622500 49
1.625000 192
1.625300 26
1.625900 7
1.626100 134
1.627800 165
1.627900 73
1.629300 3
1.629300 26
1.630000 108
1.631300 12
1.631300 104
1.632700 95
1.632800 154
1.633600 40
1.634300 85
1.634400 148
1.637500 153
1.638200 11
1.638300 82
1.638300 192
1.639300 24
1.639600 149
1.640000 30
1.641400 31
1.641900 106
1.642000 8
1.643500 131
1.645200 183
1.645400 135
1.645600 144
1.645900 47
1.647000 66
1.647000 184
1.647200 3
1.648400 191
1.648600 118
1.649600 15
1.649900 141
1.650100 50
1.650800 127
1.653400 114
1.653600 16
1.655000 40
1.655500 80
1.659100 114
1.659800 173
1.659900 78
1.661200 12
1.661300 26
1.661600 26
1.661700 99
1.662300 20
1.662500 181
1.664200 57
1.665300 116
1.665500 136
1.667200 20
1.668900 48
1.670100 191
1.670600 30
1.671100 129
1.671500 173
1.671600 1
1.671900 162
1.675500 4
1.675800 115
1.677600 32
1.677700 35
1.679000 83
1.679100 61
1.680300 193
1.680900 4
1.684600 51
1.688300 84
1.688800 170
1.690300 68
1.691200 97
1.691800 116
1.691900 38
1.692200 13
1.692700 153
1.694200 55
1.695300 29
1.697700 125
1.698600 133
1.699000 132
1.699700 100
1.700200 142
1.700300 61
1.705400 148
1.705500 166
1.706900 39
1.707500 57
1.708700 80
1.709300 81
1.709900 10
1.710600 79
1.710800 173
1.712600 173
1.713500 60
1.713800 56
1.714200 63
1.714300 50
1.716800 40
1.719200 5
1.719500 12
1.721800 71
1.723200 199
1.724400 78
1.725400 93
1.727300 43
1.727500 129
1.728300 71
1.728300 91
1.731800 55
1.732000 36
1.732800 22
1.733200 44
1.735000 173
1.735400 117
1.736100 17
1.737900 56
1.738200 156
1.738800 83
1.738900 50
1.739100 86
1.740300 46
1.742100 150
1.743200 146
1.743700 110
1.743700 168
1.744100 84
1.745100 104
1.745600 151
1.746200 150
1.747400 60
1.747600 83
1.747800 43
1.749800 27
1.750700 18
1.752400 19
1.752800 26
1.753900 190
1.754900 51
1.755200 53
1.756100 75
1.756800 62
1.758000 11
1.758100 81
1.758300 191
1.758500 114
1.759400 150
1.759500 8
1.759500 103
1.759700 162
1.760200 32
1.760900 195
1.762300 110
1.762900 93
1.763300 126
1.763400 116
1.763500 86
1.764800 144
1.766600 44
1.767200 105
1.767700 133
1.767900 143
1.770100 27
1.770200 0
1.770900 143
1.771200 101
1.773100 23
1.773100 127
1.773300 88
1.774000 80
1.774500 123
1.776200 26
1.776900 126
1.777800 172
1.779500 21
1.779800 88
1.780400 87
1.780400 193
1.782400 8
1.783200 163
1.783300 42
1.783600 152
1.783900 189
1.785900 5
1.785900 105
1.786800 60
1.787000 151
1.787300 75
1.788400 81
1.789600 31
1.790700 28
1.790700 109
1.791200 125
1.792000 66
1.796100 48
1.796600 110
1.797100 151
1.798800 94
1.800200 50
1.800600 185
1.801300 26
1.801500 57
1.803800 39
1.805000 80
1.805700 106
1.806100 186
1.806700 115
1.808100 9
1.809000 187
1.811000 116
1.811000 199
1.811800 153
1.812300 124
1.812500 30
1.814000 76
1.814300 177
1.814400 193
1.815600 185
1.816200 61
1.818600 94
1.820200 179
1.820600 139
1.822300 11
1.822600 93
1.823900 193
1.824700 192
1.826400 9
1.826400 50
1.827400 64
1.831200 44
1.831600 176
1.833600 145
1.834600 120
1.837800 174
1.838000 150
1.838500 171
1.839600 36
1.839900 13
1.840400 170
1.841500 43
1.841500 123
1.842100 159
1.843100 118
1.843900 174
1.844500 27
1.845100 163
1.846000 178
1.847600 176
1.850300 88
1.850800 55
1.851200 54
1.851900 179
1.852600 42
1.853400 79
1.853800 131
1.860100 175
1.860300 176
1.860500 61
1.861400 186
1.862200 107
1.863200 91
1.864300 46
1.864300 191
1.865800 196
1.867600 21
1.869600 112
1.873900 138
1.874200 163
1.874300 93
1.879100 19
1.880400 36
1.880700 26
1.881300 31
1.882900 54
1.884000 112
1.885000 19
1.888800 165
